Incident energy 
Incident energy 
Incident energy σ(E)
1.0E-5 134.5031
1.0625E-5 130.4872
1.125E-5 126.8108
1.1875E-5 123.4286
1.25E-5 120.3033
1.375E-5 114.7048
1.5E-5 109.8215
1.625E-5 105.5131
1.75E-5 101.675
1.875E-5 98.22742
2.0E-5 95.10832
2.1875E-5 90.94099
2.375E-5 87.27745
2.5625E-5 84.02376
2.75E-5 81.10879
2.9375E-5 78.47757
3.125E-5 76.08686
3.3125E-5 73.90212
3.5E-5 71.89538
3.875E-5 68.32813
4.25E-5 65.24411
4.625E-5 62.54322
5.0E-5 60.1522
5.3125E-5 58.35624
5.625E-5 56.71211
5.9375E-5 55.19955
6.25E-5 53.80191
6.875E-5 51.29817
7.5E-5 49.11433
8.125E-5 47.18758
8.75E-5 45.47115
9.375E-5 43.92936
1.0E-4 42.53447
1.0625E-4 41.26455
1.125E-4 40.10198
1.1875E-4 39.03245
1.25E-4 38.04417
1.375E-4 36.27377
1.5E-4 34.72957
1.625E-4 33.36716
1.75E-4 32.15347
1.875E-4 31.06327
2.0E-4 30.07694
2.1875E-4 28.75914
2.375E-4 27.60065
2.5625E-4 26.57176
2.75E-4 25.64998
2.9375E-4 24.81792
3.125E-4 24.06192
3.3125E-4 23.37106
3.5E-4 22.73648
3.875E-4 21.60844
4.25E-4 20.6332
4.625E-4 19.77911
5.0E-4 19.02302
5.3125E-4 18.4551
5.625E-4 17.93519
5.9375E-4 17.45689
6.25E-4 17.01494
6.875E-4 16.22322
7.5E-4 15.53268
8.125E-4 14.92344
8.75E-4 14.38071
9.375E-4 13.89322
0.001 13.45218
0.0010625 13.05067
0.001125 12.6831
0.0011875 12.34496
0.00125 12.0325
0.001375 11.47278
0.0015 10.98458
0.001625 10.55384
0.00175 10.17012
0.001875 9.825436
0.002 9.513595
0.0021875 9.09696
0.002375 8.730712
0.0025625 8.405464
0.00275 8.114105
0.0029375 7.851137
0.003125 7.612226
0.0033125 7.393908
0.0035 7.193376
0.003875 6.836861
0.00425 6.528572
0.004625 6.258543
0.005 6.019507
0.0053125 5.840003
0.005625 5.67572
0.0059375 5.524623
0.00625 5.38503
0.006875 5.134962
0.0075 4.916775
0.008125 4.7242
0.00875 4.552616
0.009375 4.39851
0.01 4.259145
0.010625 4.132346
0.01125 4.01635
0.011875 3.909706
0.0125 3.811196
0.01375 3.63468
0.015 3.480558
0.01625 3.344486
0.0175 3.223267
0.01875 3.11442
0.02 3.015985
0.021325 2.921279
0.02265 2.835047
0.023975 2.756121
0.0253 2.683564
0.02684375 2.606034
0.0283875 2.535015
0.031475 2.408839
0.0345625 2.299654
0.03765 2.204169
0.0407375 2.119819
0.043825 2.044605
0.0469125 1.976993
0.05 1.915787
0.053125 1.859392
0.05625 1.807814
0.059375 1.76048
0.0625 1.716894
0.06875 1.638711
0.075 1.570292
0.08125 1.509986
0.0875 1.456333
0.09375 1.4082
0.1 1.364707
0.10625 1.325158
0.1125 1.288998
0.11875 1.255811
0.125 1.225349
0.1375 1.170689
0.15 1.122885
0.1625 1.080817
0.175 1.043438
0.1875 1.009954
0.2 0.9798506
0.21875 0.9397017
0.2375 0.9044276
0.25625 0.8732302
0.275 0.845399
0.29375 0.8203853
0.3125 0.7977582
0.33125 0.7771754
0.35 0.7584783
0.3875 0.7253567
0.425 0.6968815
0.5 0.6506901
0.625 0.5948087
0.75 0.5554004
0.875 0.5265473
1.0 0.504868
1.25 0.4758119
1.5 0.4597478
1.75 0.4528017
2.0 0.4530537
2.374372 0.4657245
2.561558 0.4766466
2.748744 0.4924276
2.93593 0.5109453
3.123116 0.5352622
3.497488 0.599878
3.708073 0.6518503
3.918657 0.7135602
4.129241 0.7984378
4.234533 0.8552195
4.287179 0.9014324
4.300341 0.9223633
4.313502 0.9547381
4.326664 1.009203
4.333245 1.049555
4.339825 1.101574
4.346552 1.168783
4.353279 1.251249
4.366733 1.457753
4.380187 1.689288
4.386914 1.794677
4.393641 1.880356
4.400561 1.938913
4.40748 1.961185
4.413193 1.950584
4.418905 1.91496
4.430329 1.783166
4.45189 1.448177
4.462671 1.304665
4.473451 1.19832
4.48026 1.15023
4.487069 1.114846
4.500687 1.072847
4.514305 1.055133
4.527922 1.049969
4.557427 1.056477
4.586932 1.072408
4.645942 1.114279
4.763961 1.222874
4.881981 1.353747
5.0 1.513409
5.103829 1.685534
5.207657 1.896138
5.311485 2.156463
5.415313 2.483498
5.519141 2.897992
5.571055 3.148776
5.622969 3.440325
5.674883 3.778563
5.726797 4.173747
5.778711 4.639519
5.830625 5.1939
5.879295 5.815526
5.927964 6.563159
5.976634 7.472846
6.025303 8.589636
6.073973 9.987051
6.098308 10.82697
6.122642 11.7836
6.146977 12.87852
6.171312 14.13938
6.195647 15.60173
6.219981 17.31136
6.245938 19.47529
6.271895 22.08531
6.297852 25.27221
6.323809 29.21902
6.349766 34.19652
6.362745 37.19399
6.375723 40.61985
6.388702 44.56288
6.40168 49.13414
6.414659 54.47813
6.427637 60.78297
6.437574 66.41561
6.447511 72.9098
6.457448 80.46233
6.467384 89.33462
6.472353 94.37423
6.477321 99.88765
6.48229 105.9457
6.487258 112.6289
6.492227 120.0417
6.494711 124.0586
6.497195 128.3069
6.499679 132.8074
6.502163 137.5832
6.504647 142.6606
6.507131 148.0691
6.510376 155.6893
6.513621 164.018
6.516866 173.1564
6.52011 183.2204
6.521935 189.342
6.52376 195.8299
6.525585 202.715
6.52741 210.0316
6.529235 217.8168
6.53106 226.1116
6.532885 234.9606
6.53471 244.4124
6.536941 256.8638
6.539172 270.4024
6.541403 285.1464
6.543633 301.2186
6.545864 318.7769
6.548095 337.972
6.550326 358.9762
6.552556 381.9665
6.554686 405.9759
6.556815 432.1697
6.558944 460.7639
6.561073 491.9775
6.563203 526.0602
6.565332 563.2262
6.567461 603.7501
6.56959 647.9028
6.57172 695.9895
6.573849 748.2558
6.575978 805.0213
6.578107 866.5885
6.582366 1005.38
6.586624 1166.966
6.591086 1363.239
6.595547 1589.244
6.600009 1846.763
6.60447 2136.564
6.608932 2458.63
6.613393 2811.411
6.617854 3192.132
6.622315 3596.374
6.632049 4528.614
6.641783 5454.625
6.650706 6203.762
6.659628 6767.214
6.666559 7029.832
6.67349 7115.014
6.67502 7108.923
6.680086 7024.833
6.685152 6846.109
6.690218 6580.726
6.695283 6240.24
6.705789 5357.474
6.716295 4355.246
6.726802 3367.266
6.732056 2911.212
6.737309 2492.156
6.742563 2114.888
6.747816 1781.777
6.753069 1492.669
6.758322 1245.679
6.762859 1063.833
6.767396 908.4959
6.771933 776.8751
6.77647 666.1075
6.781007 573.3943
6.785544 496.0988
6.790081 431.8105
6.794617 378.392
6.799154 333.9467
6.803691 296.884
6.808228 265.854
6.812765 239.736
6.817302 217.6107
6.821839 198.7313
6.826376 182.4962
6.830912 168.4262
6.839031 147.4742
6.84715 130.6287
6.855269 116.7977
6.863387 105.2405
6.871506 95.43913
6.879624 87.02877
6.887743 79.73784
6.895861 73.36556
6.912099 62.78279
6.928336 54.38774
6.944573 47.60043
6.96081 42.02751
6.974182 38.15128
6.987554 34.79434
7.000926 31.86702
7.014298 29.29843
7.041042 25.02207
7.067785 21.62893
7.094529 18.88925
7.121273 16.64109
7.148017 14.77051
7.17476 13.19756
7.201504 11.86324
7.228248 10.72221
7.254992 9.738971
7.281736 8.885713
7.30848 8.140505
7.335224 7.485961
7.388711 6.396981
7.442199 5.535876
7.495687 4.837109
7.549175 4.263871
7.602662 3.80388
7.656149 3.450034
7.67529 3.329017
7.73998 2.902165
7.804669 2.562834
7.869359 2.295015
7.934048 2.069664
7.998738 1.877508
8.063427 1.712239
8.128117 1.569066
8.192806 1.444248
8.278648 1.301931
8.36449 1.181509
8.450332 1.080419
8.536173 0.991484
8.622015 0.914654
8.707857 0.8469799
8.87954 0.7364308
9.051224 0.6501312
9.222907 0.581738
9.394591 0.5271586
9.566274 0.4839344
9.746994 0.4503101
9.837354 0.4390031
9.927713 0.4353082
9.963857 0.4382786
10.0 0.4463707
10.02137 0.455691
10.04274 0.4716725
10.05343 0.4840861
10.06411 0.5014345
10.07479 0.5263786
10.08547 0.5630542
10.09126 0.5899371
10.09705 0.6233411
10.10284 0.6648087
10.10862 0.7160374
10.11441 0.7792396
10.1202 0.8565827
10.12599 0.9504597
10.13177 1.0631
10.13756 1.197246
10.14335 1.354824
10.14914 1.537477
10.15492 1.745788
10.16071 1.98053
10.16649 2.239817
10.17806 2.82274
10.19408 3.704527
10.2101 4.521445
10.21972 4.898524
10.22934 5.143014
10.2394 5.229011
10.24926 5.135491
10.25912 4.876693
10.27144 4.366107
10.28376 3.724978
10.29814 2.9313
10.30533 2.552867
10.31251 2.202525
10.3197 1.886547
10.32689 1.60937
10.33408 1.372007
10.34126 1.17339
10.34588 1.064549
10.3505 0.9693475
10.35512 0.8866344
10.35974 0.8152022
10.36436 0.7538361
10.36898 0.7013513
10.3736 0.6566218
10.37822 0.6186003
10.38746 0.558959
10.3967 0.5159679
10.40594 0.4846959
10.41518 0.4615478
10.43469 0.4289789
10.4542 0.4085252
10.49321 0.3834814
10.53222 0.3680376
10.57123 0.3571549
10.64926 0.3422927
10.72728 0.3321554
10.88333 0.3182823
11.03938 0.3122508
11.10509 0.3158102
11.13794 0.3246376
11.15437 0.3349565
11.17079 0.3539708
11.18311 0.3777989
11.19543 0.4138995
11.20159 0.4378599
11.20775 0.4664499
11.21391 0.5001206
11.22007 0.5392164
11.23239 0.6342211
11.24471 0.7501626
11.26935 1.015997
11.2827 1.149169
11.29605 1.248481
11.30488 1.286758
11.3137 1.29926
11.32345 1.281959
11.3332 1.23376
11.3412 1.174413
11.3492 1.101241
11.36519 0.9312861
11.38718 0.6985114
11.39817 0.6003294
11.40916 0.519287
11.42016 0.45561
11.43115 0.4077915
11.44214 0.373124
11.45313 0.3486821
11.46713 0.328119
11.48112 0.3153212
11.5091 0.3017652
11.56507 0.2909439
11.677 0.2822708
11.90086 0.27491
12.34858 0.2686021
12.89225 0.2696551
13.43592 0.2781412
13.97959 0.2939003
14.52326 0.3178103
15.06693 0.3517985
15.33877 0.3728332
15.6106 0.3977047
15.88244 0.4277157
16.15427 0.4633964
16.4261 0.506103
16.69793 0.5576564
16.95378 0.6164472
17.20962 0.6880638
17.46547 0.7764483
17.72131 0.8872013
17.97716 1.027368
18.10508 1.111949
18.233 1.209972
18.36092 1.323311
18.48884 1.455332
18.61676 1.61042
18.74468 1.79435
18.83663 1.948631
18.92857 2.125529
19.02051 2.329861
19.11245 2.568146
19.2044 2.848664
19.29634 3.192869
19.34231 3.43418
19.3653 3.604812
19.38828 3.835133
19.41127 4.145376
19.43425 4.540392
19.48022 5.447006
19.49909 5.757609
19.51795 5.968711
19.5237 6.00933
19.53672 6.058931
19.54973 6.053405
19.5933 5.785174
19.61872 5.611915
19.64414 5.527373
19.66956 5.553095
19.69498 5.67357
19.74582 6.094438
19.79665 6.650108
19.84749 7.308153
19.89833 8.078463
19.94917 8.98378
20.0 10.05526
20.05845 11.54788
20.08767 12.42412
20.11689 13.4064
20.14611 14.51364
20.16072 15.12118
20.17533 15.76901
20.18994 16.46085
20.20455 17.20081
20.21186 17.59051
20.21916 17.99346
20.22647 18.41143
20.23377 18.84397
20.24212 19.35824
20.25047 19.89448
20.25882 20.45396
20.26716 21.03734
20.27384 21.5233
20.28052 22.02678
20.28804 22.6156
20.29555 23.22818
20.30265 23.83115
20.30974 24.45768
20.31684 25.11089
20.32393 25.79041
20.33187 26.58562
20.3398 27.41821
20.34773 28.29173
20.35566 29.20896
20.36359 30.17294
20.37152 31.18699
20.37945 32.25471
20.38738 33.38008
20.39907 35.15341
20.41076 37.07719
20.42245 39.16949
20.43414 41.45131
20.44583 43.94718
20.45752 46.68594
20.46921 49.70179
20.48089 53.03261
20.49008 55.90828
20.49926 59.03582
20.50845 62.4557
20.51763 66.20067
20.52682 70.32743
20.536 74.88628
20.54518 79.95483
20.55436 85.6253
20.56355 92.02274
20.57273 99.28546
20.58192 107.6288
20.5911 117.2978
20.60029 128.6638
20.60947 142.1677
20.61406 149.9119
20.61865 158.4401
20.62324 167.8611
20.62783 178.3001
20.63284 191.0245
20.63785 205.3448
20.64286 221.5053
20.64787 239.7848
20.65288 260.5003
20.65789 284.0097
20.6629 310.7147
20.6679 340.9983
20.67291 375.476
20.67792 414.6341
20.68293 459.0631
20.68794 509.3989
20.69295 566.3191
20.69796 630.5374
20.70297 702.7954
20.70797 783.6817
20.71257 866.4911
20.71716 957.7381
20.72175 1058.156
20.72634 1168.275
20.73553 1419.792
20.74471 1714.777
20.7539 2055.388
20.76308 2440.32
20.77226 2866.788
20.78144 3328.708
20.81817 5302.564
20.83237 5969.476
20.84656 6481.379
20.85795 6742.438
20.86934 6848.751
20.8714 6850.649
20.87712 6827.869
20.88283 6764.447
20.89426 6521.003
20.91039 5947.039
20.92652 5177.853
20.95233 3783.461
20.96524 3108.273
20.97814 2494.019
20.98944 2021.184
21.00073 1615.949
21.00638 1438.598
21.01202 1278.027
21.01767 1133.034
21.02331 1003.331
21.02896 887.529
21.0346 785.0239
21.04025 694.3897
21.04589 614.8704
21.05154 545.1159
21.05718 484.3397
21.06283 431.3399
21.06847 385.3816
21.07331 350.8273
21.07815 320.2609
21.08299 293.2285
21.08783 269.3166
21.09267 248.1516
21.09751 229.398
21.10718 197.9904
21.11686 173.0239
21.12654 152.9834
21.13622 136.6884
21.14589 123.2647
21.15557 112.0242
21.16525 102.4919
21.17493 94.30431
21.1846 87.1977
21.20396 75.42801
21.22331 66.08148
21.24106 59.04954
21.2588 53.14062
21.27654 48.11116
21.29428 43.78664
21.31203 40.03424
21.32977 36.75779
21.36525 31.32811
21.40074 27.03704
21.43622 23.58518
21.47171 20.76385
21.50719 18.42885
21.53945 16.63738
21.57171 15.09905
21.60397 13.7669
21.63623 12.60442
21.66849 11.5834
21.70075 10.68182
21.76527 9.169533
21.82979 7.959656
21.89431 6.976702
21.95883 6.167185
22.02335 5.492525
22.07497 5.030523
22.12659 4.625378
22.22982 3.951882
22.33305 3.420279
22.43628 2.991854
22.53951 2.639515
22.64274 2.347674
22.74597 2.103538
22.8492 1.897311
23.00405 1.643325
23.1589 1.440172
23.31375 1.275287
23.46859 1.139781
23.62344 1.027226
23.77828 0.9336635
23.93313 0.8556142
24.01055 0.8253564
24.04926 0.8191702
24.08797 0.8248205
24.13959 0.848623
24.1654 0.8591058
24.19983 0.8591006
24.2027 0.8581184
24.20558 0.8569707
24.21324 0.8531338
24.22089 0.8481947
24.23619 0.8352954
24.27947 0.7851306
24.32275 0.7352353
24.36603 0.7000173
24.40931 0.6777871
24.58243 0.6248315
24.75555 0.5831042
24.92867 0.5474691
25.27491 0.4904888
25.62115 0.4477158
25.97289 0.4149898
26.32463 0.3909811
26.58844 0.3780699
26.72034 0.3733072
26.78629 0.3728448
26.81927 0.3747582
26.85224 0.3806406
26.87972 0.3910174
26.9072 0.4085028
26.93468 0.4336742
26.96216 0.4640933
26.99376 0.4975506
27.02536 0.5176037
27.0396 0.5196066
27.06517 0.5111431
27.08627 0.4940847
27.10737 0.4712217
27.14137 0.4316262
27.17536 0.3990716
27.20935 0.3780812
27.24334 0.3668195
27.31133 0.3588063
27.37931 0.3564301
27.65124 0.3531674
28.21387 0.3559146
28.7765 0.3687354
29.33913 0.3920943
29.90176 0.4275748
30.18308 0.449516
30.46439 0.4766346
30.74571 0.5086736
31.02702 0.5464958
31.30834 0.591234
31.58965 0.6443529
31.87096 0.7077802
32.15227 0.784074
32.41483 0.8699536
32.67739 0.9739678
32.93995 1.10113
33.20251 1.255234
33.46507 1.452065
33.59635 1.570023
33.72763 1.704156
33.85891 1.857546
33.99019 2.034048
34.12147 2.238542
34.25275 2.477274
34.36763 2.720583
34.4825 3.003246
34.59737 3.33426
34.71224 3.724875
34.82711 4.187369
34.94198 4.742539
34.99942 5.065111
35.05685 5.423303
35.08557 5.617391
35.11429 5.822429
35.14301 6.039238
35.17172 6.268638
35.18638 6.390979
35.20103 6.516937
35.21568 6.646747
35.23033 6.780567
35.24499 6.91866
35.25964 7.061015
35.27429 7.207909
35.28162 7.283171
35.28894 7.359539
35.29715 7.44666
35.30535 7.535261
35.31356 7.625598
35.32176 7.717491
35.33349 7.851917
35.34052 7.934206
35.34755 8.017821
35.35634 8.12428
35.36513 8.232916
35.37392 8.343788
35.38271 8.456959
35.39268 8.588186
35.40264 8.722413
35.4126 8.859872
35.42256 9.000668
35.43253 9.145055
35.44249 9.292859
35.45245 9.44434
35.46241 9.599622
35.47238 9.758996
35.48234 9.922275
35.50227 10.26177
35.5222 10.61929
35.54212 10.99596
35.56205 11.39357
35.58198 11.81352
35.60191 12.25752
35.62183 12.72722
35.64762 13.37723
35.67341 14.07923
35.6992 14.839
35.72498 15.66278
35.75077 16.55878
35.77655 17.53502
35.80234 18.60236
35.82812 19.77172
35.85391 21.05776
35.8797 22.47624
35.90549 24.04629
35.93127 25.79002
35.95706 27.73612
35.98285 29.917
36.00864 32.37298
36.03442 35.15248
36.06021 38.3193
36.086 41.94999
36.11179 46.14347
36.13757 51.02586
36.16336 56.77007
36.18915 63.60305
36.20205 67.52419
36.21494 71.8432
36.22783 76.62529
36.24072 81.94713
36.25245 87.33914
36.26417 93.34118
36.27589 100.0694
36.28761 107.6651
36.29933 116.3078
36.31105 126.228
36.32277 137.722
36.33449 151.1721
36.34622 167.0849
36.35794 186.0644
36.36966 208.9252
36.38138 236.6774
36.3931 270.5767
36.40482 312.1586
36.41654 363.2662
36.4224 393.0559
36.42826 426.0631
36.43471 466.4953
36.44116 511.6617
36.44761 562.0336
36.45405 618.0071
36.4605 680.2543
36.46695 749.1946
36.4734 825.3241
36.47984 908.9861
36.49274 1101.324
36.50563 1328.925
36.51852 1593.786
36.53141 1896.111
36.549 2365.184
36.56658 2886.987
36.60174 3990.522
36.62752 4716.176
36.64041 5007.334
36.6533 5231.323
36.6674 5386.126
36.6815 5437.45
36.69177 5407.601
36.70204 5322.042
36.72257 4997.231
36.7451 4449.864
36.76762 3779.305
36.80301 2675.07
36.8207 2170.386
36.83839 1725.417
36.84724 1528.396
36.85609 1349.037
36.86494 1187.213
36.87378 1042.576
36.88263 914.0058
36.89147 800.7813
36.90032 701.4856
36.90916 615.0984
36.91801 540.1456
36.92686 475.4646
36.93571 419.8344
36.94455 372.1562
36.9534 331.2631
36.96224 296.2889
36.97109 266.2972
36.97993 240.6016
36.98758 221.2949
36.99522 204.3364
37.0105 176.1407
37.02578 153.9025
37.04106 136.0829
37.05634 121.5624
37.07162 109.5332
37.0869 99.41381
37.10218 90.7835
37.11746 83.33517
37.13274 76.84138
37.1633 66.07203
37.19386 57.52029
37.22442 50.58724
37.25016 45.70649
37.2759 41.51931
37.30164 37.8971
37.32737 34.74159
37.35311 31.97221
37.37884 29.52883
37.43031 25.42447
37.48178 22.12813
37.53325 19.43703
37.58472 17.2106
37.63619 15.34778
37.7134 13.07612
37.7906 11.27658
37.86781 9.825932
37.94501 8.639508
38.02222 7.656856
38.09942 6.835021
38.17663 6.14067
38.25383 5.546998
38.32461 5.074139
38.39538 4.658785
38.53693 3.967685
38.67848 3.420156
38.82002 2.979049
38.96157 2.618416
39.10311 2.319854
39.24466 2.070013
39.3862 1.860197
39.51488 1.696597
39.64356 1.55243
39.77224 1.42594
39.90091 1.314525
40.15827 1.127957
40.41562 0.9790204
40.67298 0.8582808
40.93033 0.759054
41.18768 0.6765121
41.44503 0.6071479
41.65735 0.5584051
41.86967 0.5162735
42.08199 0.477367
42.2943 0.4439901
42.50662 0.4134685
42.71893 0.3872031
42.93125 0.3639268
42.98433 0.359967
43.03741 0.3596872
43.06395 0.3627535
43.09049 0.3695747
43.11703 0.3815839
43.14356 0.3999274
43.18217 0.4381159
43.22077 0.4845558
43.25455 0.5217548
43.28833 0.5442807
43.30804 0.5472084
43.30947 0.5470948
43.3146 0.5463207
43.31973 0.5449755
43.32999 0.5406049
43.36152 0.5145882
43.39305 0.4751526
43.40746 0.4550925
43.45161 0.3960562
43.47368 0.3715133
43.49575 0.351513
43.51782 0.3359977
43.53989 0.3244123
43.58403 0.3098478
43.67232 0.2967304
43.7606 0.2889226
44.11373 0.2642676
44.46687 0.2442911
44.64344 0.235772
44.73172 0.2325296
44.82 0.2323616
44.84883 0.2346025
44.87766 0.2398662
44.90649 0.2506348
44.9209 0.2592098
44.93531 0.2706766
44.94973 0.2856933
44.96414 0.304902
44.97856 0.3289523
44.99297 0.3583198
45.00739 0.3933546
45.0218 0.4340263
45.05062 0.5304714
45.09387 0.6939428
45.11549 0.7691835
45.13711 0.8290667
45.16053 0.868072
45.17743 0.8760617
45.19557 0.8647951
45.21881 0.8221597
45.23458 0.7780708
45.25035 0.724952
45.28189 0.6045886
45.29517 0.5531105
45.31675 0.4740481
45.33833 0.4046624
45.35991 0.3474204
45.38149 0.3027266
45.40307 0.2694957
45.42465 0.2458103
45.44623 0.2294945
45.46781 0.2185133
45.48939 0.2111857
45.51097 0.2062467
45.55413 0.2003087
45.64045 0.1942173
45.98573 0.1801398
46.33101 0.1695288
46.50365 0.1652248
46.58997 0.1645614
46.63313 0.1661809
46.67629 0.1712045
46.70285 0.1769976
46.72941 0.185394
46.75597 0.1964577
46.78253 0.2096562
46.82901 0.233765
46.85225 0.2435502
46.87549 0.2499848
46.89739 0.2520881
46.90026 0.2520538
46.90646 0.2517308
46.91266 0.2510696
46.92506 0.2487592
46.96095 0.2356025
46.99684 0.2162928
47.03274 0.1959422
47.06863 0.1785593
47.10453 0.1658957
47.14042 0.1577518
47.17632 0.1529259
47.21221 0.1501244
47.28399 0.147171
47.57113 0.1408075
48.14542 0.131119
48.71971 0.1234767
