Incident energy 
Incident energy 
Incident energy σ(E)
1.0E-5 0.001331484
1.0625E-5 0.00129173
1.125E-5 0.001255336
1.1875E-5 0.001221854
1.25E-5 0.001190916
1.375E-5 0.001135494
1.5E-5 0.001087153
1.625E-5 0.001044503
1.75E-5 0.001006509
1.875E-5 9.723801E-4
2.0E-5 9.415031E-4
2.1875E-5 9.002494E-4
2.375E-5 8.63983E-4
2.5625E-5 8.317737E-4
2.75E-5 8.029175E-4
2.9375E-5 7.768702E-4
3.125E-5 7.532038E-4
3.3125E-5 7.315764E-4
3.5E-5 7.117111E-4
3.875E-5 6.763978E-4
4.25E-5 6.45868E-4
4.625E-5 6.191311E-4
5.0E-5 5.954615E-4
5.3125E-5 5.776828E-4
5.625E-5 5.61407E-4
5.9375E-5 5.464337E-4
6.25E-5 5.325979E-4
6.875E-5 5.078126E-4
7.5E-5 4.86194E-4
8.125E-5 4.671204E-4
8.75E-5 4.501289E-4
9.375E-5 4.348661E-4
1.0E-4 4.210576E-4
1.0625E-4 4.084862E-4
1.125E-4 3.969775E-4
1.1875E-4 3.863898E-4
1.25E-4 3.766064E-4
1.375E-4 3.590806E-4
1.5E-4 3.437939E-4
1.625E-4 3.303069E-4
1.75E-4 3.18292E-4
1.875E-4 3.074996E-4
2.0E-4 2.977355E-4
2.1875E-4 2.8469E-4
2.375E-4 2.732216E-4
2.5625E-4 2.630361E-4
2.75E-4 2.53911E-4
2.9375E-4 2.45674E-4
3.125E-4 2.3819E-4
3.3125E-4 2.313508E-4
3.5E-4 2.250688E-4
3.875E-4 2.139016E-4
4.25E-4 2.042471E-4
4.625E-4 1.95792E-4
5.0E-4 1.883069E-4
5.3125E-4 1.826847E-4
5.625E-4 1.775377E-4
5.9375E-4 1.728027E-4
6.25E-4 1.684274E-4
6.875E-4 1.605896E-4
7.5E-4 1.537533E-4
8.125E-4 1.477219E-4
8.75E-4 1.42349E-4
9.375E-4 1.375228E-4
0.001 1.331565E-4
0.0010625 1.291815E-4
0.001125 1.255425E-4
0.0011875 1.221948E-4
0.00125 1.191014E-4
0.001375 1.1356E-4
0.0015 1.087265E-4
0.001625 1.044621E-4
0.00175 1.00663E-4
0.001875 9.725036E-5
0.002 9.416287E-5
0.0021875 9.00378E-5
0.002375 8.641154E-5
0.0025625 8.319119E-5
0.00275 8.030634E-5
0.0029375 7.770255E-5
0.003125 7.533693E-5
0.0033125 7.317519E-5
0.0035 7.118952E-5
0.003875 6.765924E-5
0.00425 6.460641E-5
0.004625 6.193238E-5
0.005 5.956518E-5
0.0053125 5.778748E-5
0.005625 5.616048E-5
0.0059375 5.466405E-5
0.00625 5.32815E-5
0.006875 5.080471E-5
0.0075 4.864357E-5
0.008125 4.673602E-5
0.00875 4.503631E-5
0.009375 4.350967E-5
0.01 4.212898E-5
0.010625 4.087272E-5
0.01125 3.972344E-5
0.011875 3.866675E-5
0.0125 3.769061E-5
0.01375 3.594138E-5
0.015 3.441391E-5
0.01625 3.306519E-5
0.0175 3.186357E-5
0.01875 3.078448E-5
0.02 2.980851E-5
0.021325 2.886942E-5
0.02265 2.801425E-5
0.023975 2.723145E-5
0.0253 2.651174E-5
0.02684375 2.574261E-5
0.0283875 2.503797E-5
0.031475 2.378584E-5
0.0345625 2.270204E-5
0.03765 2.175398E-5
0.0407375 2.091625E-5
0.043825 2.016906E-5
0.0469125 1.94972E-5
0.05 1.888882E-5
0.053125 1.832811E-5
0.05625 1.781516E-5
0.059375 1.734427E-5
0.0625 1.691055E-5
0.06875 1.613221E-5
0.075 1.545069E-5
0.08125 1.484962E-5
0.0875 1.431455E-5
0.09375 1.383423E-5
0.1 1.339995E-5
0.10625 1.30048E-5
0.1125 1.264328E-5
0.11875 1.231126E-5
0.125 1.20063E-5
0.1375 1.145856E-5
0.15 1.097888E-5
0.1625 1.055618E-5
0.175 1.018005E-5
0.1875 9.842613E-6
0.2 9.538774E-6
0.21875 9.132762E-6
0.2375 8.775204E-6
0.25625 8.458174E-6
0.275 8.174614E-6
0.29375 7.91907E-6
0.3125 7.687259E-6
0.33125 7.475775E-6
0.35 7.283042E-6
0.3875 6.940057E-6
0.425 6.643254E-6
0.5 6.156515E-6
0.625 5.554502E-6
0.75 5.115061E-6
0.875 4.778873E-6
1.0 4.511938E-6
1.25 4.112602E-6
1.5 3.829616E-6
1.75 3.620922E-6
2.0 3.46341E-6
2.374372 3.297256E-6
2.561558 3.235369E-6
2.748744 3.190104E-6
2.93593 3.152867E-6
3.123116 3.13032E-6
3.497488 3.115429E-6
3.708073 3.131071E-6
3.918657 3.158684E-6
4.129241 3.208784E-6
4.234533 3.241934E-6
4.287179 3.260672E-6
4.300341 3.26572E-6
4.313502 3.27089E-6
4.326664 3.27618E-6
4.333245 3.278869E-6
4.339825 3.281588E-6
4.346552 3.284398E-6
4.353279 3.287241E-6
4.366733 3.293023E-6
4.380187 3.298935E-6
4.386914 3.30194E-6
4.393641 3.304979E-6
4.400561 3.30814E-6
4.40748 3.311336E-6
4.413193 3.314002E-6
4.418905 3.316692E-6
4.430329 3.322148E-6
4.45189 3.332725E-6
4.462671 3.338154E-6
4.473451 3.343679E-6
4.48026 3.347218E-6
4.487069 3.350796E-6
4.500687 3.35807E-6
4.514305 3.365503E-6
4.527922 3.373103E-6
4.557427 3.390181E-6
4.586932 3.408094E-6
4.645942 3.446288E-6
4.763961 3.536071E-6
4.881981 3.641635E-6
5.0 3.768911E-6
5.103829 3.904406E-6
5.207657 4.067745E-6
5.311485 4.266014E-6
5.415313 4.509778E-6
5.519141 4.811534E-6
5.571055 4.990564E-6
5.622969 5.195481E-6
5.674883 5.429541E-6
5.726797 5.698588E-6
5.778711 6.010324E-6
5.830625 6.374798E-6
5.879295 6.776184E-6
5.927964 7.250237E-6
5.976634 7.816311E-6
6.025303 8.498212E-6
6.073973 9.334525E-6
6.098308 9.829371E-6
6.122642 1.038692E-5
6.146977 1.101812E-5
6.171312 1.173694E-5
6.195647 1.256123E-5
6.219981 1.351384E-5
6.245938 1.470498E-5
6.271895 1.612339E-5
6.297852 1.783291E-5
6.323809 1.992218E-5
6.349766 2.252134E-5
6.362745 2.407052E-5
6.375723 2.582845E-5
6.388702 2.783712E-5
6.40168 3.014871E-5
6.414659 3.283088E-5
6.427637 3.597128E-5
6.437574 3.875777E-5
6.447511 4.195095E-5
6.457448 4.564139E-5
6.467384 4.994885E-5
6.472353 5.238355E-5
6.477321 5.503805E-5
6.48229 5.794452E-5
6.487258 6.113935E-5
6.492227 6.466966E-5
6.494711 6.657719E-5
6.497195 6.859061E-5
6.499679 7.07192E-5
6.502163 7.297336E-5
6.504647 7.536479E-5
6.507131 7.790665E-5
6.510376 8.14788E-5
6.513621 8.537147E-5
6.516866 8.962955E-5
6.52011 9.430438E-5
6.521935 9.714095E-5
6.52376 1.001418E-4
6.525585 1.033206E-4
6.52741 1.066925E-4
6.529235 1.102738E-4
6.53106 1.140825E-4
6.532885 1.181383E-4
6.53471 1.224624E-4
6.536941 1.281473E-4
6.539172 1.34315E-4
6.541403 1.410172E-4
6.543633 1.483076E-4
6.545864 1.562554E-4
6.548095 1.649263E-4
6.550326 1.743954E-4
6.552556 1.847397E-4
6.554686 1.955227E-4
6.556815 2.072662E-4
6.558944 2.200643E-4
6.561073 2.34012E-4
6.563203 2.492178E-4
6.565332 2.657742E-4
6.567461 2.838001E-4
6.56959 3.034128E-4
6.57172 3.247441E-4
6.573849 3.478997E-4
6.575978 3.730172E-4
6.578107 4.002268E-4
6.582366 4.6146E-4
6.586624 5.325976E-4
6.591086 6.188301E-4
6.595547 7.179306E-4
6.600009 8.306402E-4
6.60447 9.572537E-4
6.608932 0.00109772
6.613393 0.001251321
6.617854 0.001416804
6.622315 0.001592203
6.632049 0.00199548
6.641783 0.002394115
6.650706 0.002714476
6.659628 0.002952734
6.666559 0.003061053
6.67349 0.003091993
6.67502 0.003088
6.680086 0.003047067
6.685152 0.002965205
6.690218 0.002845995
6.695283 0.002694554
6.705789 0.002305307
6.716295 0.001866478
6.726802 0.001436021
6.732056 0.001237958
6.737309 0.00105633
6.742563 8.931398E-4
6.747816 7.49344E-4
6.753069 6.24808E-4
6.758322 5.186535E-4
6.762859 4.406737E-4
6.767396 3.742112E-4
6.771933 3.18033E-4
6.77647 2.708807E-4
6.781007 2.315283E-4
6.785544 1.988239E-4
6.790081 1.717171E-4
6.794617 1.492782E-4
6.799154 1.306844E-4
6.803691 1.152467E-4
6.808228 1.023815E-4
6.812765 9.160516E-5
6.817302 8.252193E-5
6.821839 7.481092E-5
6.826376 6.82141E-5
6.830912 6.252641E-5
6.839031 5.411532E-5
6.84715 4.741185E-5
6.855269 4.195364E-5
6.863387 3.742878E-5
6.871506 3.362038E-5
6.879624 3.037629E-5
6.887743 2.758397E-5
6.895861 2.516049E-5
6.912099 2.117614E-5
6.928336 1.805814E-5
6.944573 1.557109E-5
6.96081 1.355643E-5
6.974182 1.217246E-5
6.987554 1.098731E-5
7.000926 9.965455E-6
7.014298 9.078997E-6
7.041042 7.627951E-6
7.067785 6.503318E-6
7.094529 5.616737E-6
7.121273 4.906636E-6
7.148017 4.330124E-6
7.17476 3.857362E-6
7.201504 3.46657E-6
7.228248 3.141181E-6
7.254992 2.868371E-6
7.281736 2.638199E-6
7.30848 2.442913E-6
7.335224 2.276426E-6
7.388711 2.011849E-6
7.442199 1.816137E-6
7.495687 1.667732E-6
7.549175 1.554051E-6
7.602662 1.466593E-6
7.656149 1.399465E-6
7.67529 1.379634E-6
7.73998 1.32567E-6
7.804669 1.287037E-6
7.869359 1.259063E-6
7.934048 1.239539E-6
7.998738 1.226546E-6
8.063427 1.218559E-6
8.128117 1.214428E-6
8.192806 1.213284E-6
8.278648 1.215256E-6
8.36449 1.220189E-6
8.450332 1.227404E-6
8.536173 1.235898E-6
8.622015 1.245457E-6
8.707857 1.255726E-6
8.87954 1.277705E-6
9.051224 1.30055E-6
9.222907 1.323582E-6
9.394591 1.346454E-6
9.566274 1.369E-6
9.746994 1.392319E-6
9.837354 1.403828E-6
9.927713 1.415243E-6
9.963857 1.41978E-6
10.0 1.424304E-6
10.02137 1.426972E-6
10.04274 1.429636E-6
10.05343 1.430967E-6
10.06411 1.432295E-6
10.07479 1.433623E-6
10.08547 1.434949E-6
10.09126 1.435668E-6
10.09705 1.436386E-6
10.10284 1.437104E-6
10.10862 1.437821E-6
10.11441 1.438538E-6
10.1202 1.439255E-6
10.12599 1.439972E-6
10.13177 1.440687E-6
10.13756 1.441404E-6
10.14335 1.44212E-6
10.14914 1.442835E-6
10.15492 1.44355E-6
10.16071 1.444265E-6
10.16649 1.444979E-6
10.17806 1.446407E-6
10.19408 1.448382E-6
10.2101 1.450356E-6
10.21972 1.45154E-6
10.22934 1.452723E-6
10.2394 1.453961E-6
10.24926 1.455172E-6
10.25912 1.456384E-6
10.27144 1.457896E-6
10.28376 1.459408E-6
10.29814 1.461171E-6
10.30533 1.462053E-6
10.31251 1.462932E-6
10.3197 1.463813E-6
10.32689 1.464693E-6
10.33408 1.465573E-6
10.34126 1.466452E-6
10.34588 1.467017E-6
10.3505 1.467583E-6
10.35512 1.468148E-6
10.35974 1.468713E-6
10.36436 1.469277E-6
10.36898 1.469842E-6
10.3736 1.470407E-6
10.37822 1.470971E-6
10.38746 1.4721E-6
10.3967 1.473229E-6
10.40594 1.474357E-6
10.41518 1.475485E-6
10.43469 1.477865E-6
10.4542 1.480244E-6
10.49321 1.484998E-6
10.53222 1.489748E-6
10.57123 1.494495E-6
10.64926 1.503989E-6
10.72728 1.513484E-6
10.88333 1.532513E-6
11.03938 1.551642E-6
11.10509 1.55974E-6
11.13794 1.563803E-6
11.15437 1.565838E-6
11.17079 1.567874E-6
11.18311 1.569404E-6
11.19543 1.570935E-6
11.20159 1.571701E-6
11.20775 1.572468E-6
11.21391 1.573235E-6
11.22007 1.574002E-6
11.23239 1.575538E-6
11.24471 1.577075E-6
11.26935 1.580154E-6
11.2827 1.581825E-6
11.29605 1.583498E-6
11.30488 1.584606E-6
11.3137 1.585713E-6
11.32345 1.586939E-6
11.3332 1.588165E-6
11.3412 1.589172E-6
11.3492 1.59018E-6
11.36519 1.592196E-6
11.38718 1.594975E-6
11.39817 1.596366E-6
11.40916 1.597759E-6
11.42016 1.599154E-6
11.43115 1.60055E-6
11.44214 1.601948E-6
11.45313 1.603347E-6
11.46713 1.605132E-6
11.48112 1.606919E-6
11.5091 1.610502E-6
11.56507 1.617707E-6
11.677 1.632269E-6
11.90086 1.662373E-6
12.34858 1.725384E-6
12.89225 1.810535E-6
13.43592 1.908452E-6
13.97959 2.023713E-6
14.52326 2.162445E-6
15.06693 2.333302E-6
15.33877 2.432108E-6
15.6106 2.543868E-6
15.88244 2.673022E-6
16.15427 2.821335E-6
16.4261 2.993239E-6
16.69793 3.19456E-6
16.95378 3.417784E-6
17.20962 3.682571E-6
17.46547 4.000884E-6
17.72131 4.389438E-6
17.97716 4.86884E-6
18.10508 5.152638E-6
18.233 5.476859E-6
18.36092 5.846624E-6
18.48884 6.271362E-6
18.61676 6.763222E-6
18.74468 7.33801E-6
18.83663 7.813868E-6
18.92857 8.353118E-6
19.02051 8.968041E-6
19.11245 9.674246E-6
19.2044 1.048857E-5
19.29634 1.143055E-5
19.34231 1.196353E-5
19.3653 1.224789E-5
19.38828 1.254479E-5
19.41127 1.285526E-5
19.43425 1.317987E-5
19.48022 1.387606E-5
19.49909 1.418151E-5
19.51795 1.449918E-5
19.5237 1.459861E-5
19.53672 1.482836E-5
19.54973 1.506454E-5
19.5933 1.590703E-5
19.61872 1.643835E-5
19.64414 1.700174E-5
19.66956 1.759963E-5
19.69498 1.823472E-5
19.74582 1.962952E-5
19.79665 2.121707E-5
19.84749 2.303798E-5
19.89833 2.514188E-5
19.94917 2.759198E-5
20.0 3.046892E-5
20.05845 3.444486E-5
20.08767 3.676471E-5
20.11689 3.93546E-5
20.14611 4.226187E-5
20.16072 4.385213E-5
20.17533 4.554432E-5
20.18994 4.734767E-5
20.20455 4.927239E-5
20.21186 5.028448E-5
20.21916 5.132987E-5
20.22647 5.241307E-5
20.23377 5.353286E-5
20.24212 5.486272E-5
20.25047 5.62477E-5
20.25882 5.769095E-5
20.26716 5.919405E-5
20.27384 6.044478E-5
20.28052 6.173932E-5
20.28804 6.32517E-5
20.29555 6.48234E-5
20.30265 6.636877E-5
20.30974 6.797283E-5
20.31684 6.964346E-5
20.32393 7.137954E-5
20.33187 7.340893E-5
20.3398 7.553122E-5
20.34773 7.775517E-5
20.35566 8.008765E-5
20.36359 8.253608E-5
20.37152 8.510858E-5
20.37945 8.781399E-5
20.38738 9.066201E-5
20.39907 9.514312E-5
20.41076 9.999563E-5
20.42245 1.052637E-4
20.43414 1.109984E-4
20.44583 1.172595E-4
20.45752 1.241171E-4
20.46921 1.316543E-4
20.48089 1.399627E-4
20.49008 1.471235E-4
20.49926 1.548994E-4
20.50845 1.633887E-4
20.51763 1.726701E-4
20.52682 1.828809E-4
20.536 1.941416E-4
20.54518 2.066392E-4
20.55436 2.205954E-4
20.56355 2.363105E-4
20.57273 2.54115E-4
20.58192 2.74525E-4
20.5911 2.981247E-4
20.60029 3.25801E-4
20.60947 3.586035E-4
20.61406 3.773808E-4
20.61865 3.980334E-4
20.62324 4.208204E-4
20.62783 4.460387E-4
20.63284 4.767397E-4
20.63785 5.112472E-4
20.64286 5.501408E-4
20.64787 5.940819E-4
20.65288 6.438219E-4
20.65789 7.002091E-4
20.6629 7.641948E-4
20.6679 8.366846E-4
20.67291 9.191382E-4
20.67792 0.001012704
20.68293 0.00111878
20.68794 0.001238867
20.69295 0.001374568
20.69796 0.001527566
20.70297 0.001699613
20.70797 0.001892093
20.71257 0.002089046
20.71716 0.002305965
20.72175 0.002544579
20.72634 0.002806134
20.73553 0.003403168
20.74471 0.004102861
20.7539 0.004910203
20.76308 0.005821979
20.77226 0.006831466
20.78144 0.007924134
20.81817 0.01258419
20.83237 0.0141539
20.84656 0.01535478
20.85795 0.01596309
20.86934 0.01620475
20.8714 0.01620744
20.87712 0.01614855
20.88283 0.01599359
20.89426 0.01540824
20.91039 0.01403877
20.92652 0.0122102
20.95233 0.008903761
20.96524 0.007305409
20.97814 0.005852701
20.98944 0.004735435
21.00073 0.003778701
21.00638 0.003360264
21.01202 0.002981592
21.01767 0.002639824
21.02331 0.002334252
21.02896 0.002061574
21.0346 0.001820346
21.04025 0.001607185
21.04589 0.001420289
21.05154 0.001256459
21.05718 0.001113825
21.06283 9.895445E-4
21.06847 8.818718E-4
21.07331 8.009887E-4
21.07815 7.295035E-4
21.08299 6.66342E-4
21.08783 6.10527E-4
21.09267 5.611756E-4
21.09751 5.174954E-4
21.10718 4.444673E-4
21.11686 3.865607E-4
21.12654 3.402018E-4
21.13622 3.026099E-4
21.14589 2.717266E-4
21.15557 2.459359E-4
21.16525 2.24122E-4
21.17493 2.054324E-4
21.1846 1.892491E-4
21.20396 1.625354E-4
21.22331 1.414104E-4
21.24106 1.255768E-4
21.2588 1.123177E-4
21.27654 1.010698E-4
21.29428 9.143013E-5
21.31203 8.30929E-5
21.32977 7.58365E-5
21.36525 6.386754E-5
21.40074 5.446843E-5
21.43622 4.695529E-5
21.47171 4.08533E-5
21.50719 3.58351E-5
21.53945 3.200839E-5
21.57171 2.87414E-5
21.60397 2.592859E-5
21.63623 2.348812E-5
21.66849 2.135692E-5
21.70075 1.948591E-5
21.76527 1.637438E-5
21.82979 1.391445E-5
21.89431 1.193979E-5
21.95883 1.03332E-5
22.02335 9.010615E-6
22.07497 8.115053E-6
22.12659 7.33756E-6
22.22982 6.064313E-6
22.33305 5.08026E-6
22.43628 4.303851E-6
22.53951 3.678567E-6
22.64274 3.171937E-6
22.74597 2.757646E-6
22.8492 2.415743E-6
23.00405 2.006931E-6
23.1589 1.691908E-6
23.31375 1.44597E-6
23.46859 1.251882E-6
23.62344 1.097326E-6
23.77828 9.743585E-7
23.93313 8.750943E-7
24.01055 8.312325E-7
24.04926 8.110702E-7
24.08797 7.920661E-7
24.13959 7.683583E-7
24.1654 7.571504E-7
24.19983 7.428287E-7
24.2027 7.416663E-7
24.20558 7.405046E-7
24.21324 7.37438E-7
24.22089 7.344085E-7
24.23619 7.284476E-7
24.27947 7.122717E-7
24.32275 6.970656E-7
24.36603 6.827752E-7
24.40931 6.693231E-7
24.58243 6.220033E-7
24.75555 5.842273E-7
24.92867 5.544464E-7
25.27491 5.136242E-7
25.62115 4.905595E-7
25.97289 4.795523E-7
26.32463 4.777906E-7
26.58844 4.811358E-7
26.72034 4.836686E-7
26.78629 4.852921E-7
26.81927 4.861728E-7
26.85224 4.870941E-7
26.87972 4.87894E-7
26.9072 4.887238E-7
26.93468 4.895835E-7
26.96216 4.904723E-7
26.99376 4.915289E-7
27.02536 4.926207E-7
27.0396 4.931238E-7
27.06517 4.940444E-7
27.08627 4.948204E-7
27.10737 4.956111E-7
27.14137 4.969163E-7
27.17536 4.982588E-7
27.20935 4.996379E-7
27.24334 5.010521E-7
27.31133 5.039859E-7
27.37931 5.070705E-7
27.65124 5.20503E-7
28.21387 5.536223E-7
28.7765 5.934447E-7
29.33913 6.40221E-7
29.90176 6.949909E-7
30.18308 7.251574E-7
30.46439 7.587606E-7
30.74571 7.956338E-7
31.02702 8.363409E-7
31.30834 8.816127E-7
31.58965 9.323749E-7
31.87096 9.898258E-7
32.15227 1.055526E-6
32.41483 1.126128E-6
32.67739 1.208027E-6
32.93995 1.304111E-6
33.20251 1.416448E-6
33.46507 1.5541E-6
33.59635 1.634308E-6
33.72763 1.723811E-6
33.85891 1.824267E-6
33.99019 1.937727E-6
34.12147 2.066767E-6
34.25275 2.214651E-6
34.36763 2.362789E-6
34.4825 2.532125E-6
34.59737 2.72724E-6
34.71224 2.953807E-6
34.82711 3.217932E-6
34.94198 3.529957E-6
34.99942 3.709025E-6
35.05685 3.906211E-6
35.08557 4.012397E-6
35.11429 4.124105E-6
35.14301 4.241734E-6
35.17172 4.365675E-6
35.18638 4.431566E-6
35.20103 4.499261E-6
35.21568 4.568875E-6
35.23033 4.640487E-6
35.24499 4.714226E-6
35.25964 4.790078E-6
35.27429 4.86818E-6
35.28162 4.908131E-6
35.28894 4.948625E-6
35.29715 4.994769E-6
35.30535 5.041641E-6
35.31356 5.089372E-6
35.32176 5.137866E-6
35.33349 5.208702E-6
35.34052 5.252004E-6
35.34755 5.295958E-6
35.35634 5.351855E-6
35.36513 5.408821E-6
35.37392 5.466883E-6
35.38271 5.526072E-6
35.39268 5.594608E-6
35.40264 5.664608E-6
35.4126 5.736186E-6
35.42256 5.809393E-6
35.43253 5.884356E-6
35.44249 5.960978E-6
35.45245 6.039389E-6
35.46241 6.119648E-6
35.47238 6.201898E-6
35.48234 6.286038E-6
35.50227 6.460588E-6
35.5222 6.643857E-6
35.54212 6.83636E-6
35.56205 7.038956E-6
35.58198 7.252284E-6
35.60191 7.477144E-6
35.62183 7.714294E-6
35.64762 8.041335E-6
35.67341 8.393136E-6
35.6992 8.772366E-6
35.72498 9.181903E-6
35.75077 9.625554E-6
35.77655 1.010698E-5
35.80234 1.06312E-5
35.82812 1.120319E-5
35.85391 1.182966E-5
35.8797 1.251779E-5
35.90549 1.327629E-5
35.93127 1.411517E-5
35.95706 1.504745E-5
35.98285 1.608777E-5
36.00864 1.725428E-5
36.03442 1.856874E-5
36.06021 2.005981E-5
36.086 2.176171E-5
36.11179 2.371859E-5
36.13757 2.598652E-5
36.16336 2.864235E-5
36.18915 3.178645E-5
36.20205 3.358416E-5
36.21494 3.555928E-5
36.22783 3.774053E-5
36.24072 4.016149E-5
36.25245 4.260795E-5
36.26417 4.532412E-5
36.27589 4.836072E-5
36.28761 5.177914E-5
36.29933 5.56574E-5
36.31105 6.009528E-5
36.32277 6.5221E-5
36.33449 7.119953E-5
36.34622 7.824941E-5
36.35794 8.663012E-5
36.36966 9.669185E-5
36.38138 1.08868E-4
36.3931 1.236965E-4
36.40482 1.418343E-4
36.41654 1.64069E-4
36.4224 1.770059E-4
36.42826 1.913237E-4
36.43471 2.08842E-4
36.44116 2.283891E-4
36.44761 2.501654E-4
36.45405 2.743385E-4
36.4605 3.011946E-4
36.46695 3.309108E-4
36.4734 3.636967E-4
36.47984 3.99696E-4
36.49274 4.823577E-4
36.50563 5.800276E-4
36.51852 6.935271E-4
36.53141 8.229059E-4
36.549 0.001023327
36.56658 0.001245866
36.60174 0.001715014
36.62752 0.002021953
36.64041 0.002144417
36.6533 0.00223799
36.6674 0.002301661
36.6815 0.002321066
36.69177 0.0023065
36.70204 0.002268198
36.72257 0.00212627
36.7451 0.001889688
36.76762 0.001601408
36.80301 0.00112867
36.8207 9.132617E-4
36.83839 7.236878E-4
36.84724 6.398657E-4
36.85609 5.636297E-4
36.86494 4.949133E-4
36.87378 4.335572E-4
36.88263 3.790744E-4
36.89147 3.311483E-4
36.90032 2.891681E-4
36.90916 2.526918E-4
36.91801 2.210869E-4
36.92686 1.938535E-4
36.93571 1.70468E-4
36.94455 1.504595E-4
36.9534 1.333301E-4
36.96224 1.187089E-4
36.97109 1.06197E-4
36.97993 9.55013E-5
36.98758 8.748266E-5
36.99522 8.045427E-5
37.0105 6.880651E-5
37.02578 5.966186E-5
37.04106 5.236835E-5
37.05634 4.645268E-5
37.07162 4.157413E-5
37.0869 3.748793E-5
37.10218 3.401752E-5
37.11746 3.103429E-5
37.13274 2.844329E-5
37.1633 2.416934E-5
37.19386 2.079922E-5
37.22442 1.808551E-5
37.25016 1.618688E-5
37.2759 1.456709E-5
37.30164 1.317359E-5
37.32737 1.196633E-5
37.35311 1.091263E-5
37.37884 9.988073E-6
37.43031 8.447553E-6
37.48178 7.223869E-6
37.53325 6.235838E-6
37.58472 5.427456E-6
